3500.000000	5667.702005
3501.400467	5668.581459
3502.800934	5670.839927
3504.201400	5684.397606
3505.601867	5673.336292
3507.002334	5654.196727
3508.402801	5683.073944
3509.803268	5675.537074
3511.203735	5677.777166
3512.604201	5684.281305
3514.004668	5687.566717
3515.405135	5703.103254
3516.805602	5697.096141
3518.206069	5690.530734
3519.606536	5679.455385
3521.007002	5676.998664
3522.407469	5697.634215
3523.807936	5715.358677
3525.208403	5698.104431
3526.608870	5697.706433
3528.009336	5709.135107
3529.409803	5681.248857
3530.810270	5700.298786
3532.210737	5714.307603
3533.611204	5722.061766
3535.011671	5707.400146
3536.412137	5718.748910
3537.812604	5718.955972
3539.213071	5729.144216
3540.613538	5702.932393
3542.014005	5730.421993
3543.414471	5701.495294
3544.814938	5687.277455
3546.215405	5719.886838
3547.615872	5717.718038
3549.016339	5747.113241
3550.416806	5746.509295
3551.817272	5720.887370
3553.217739	5754.569645
3554.618206	5729.571129
3556.018673	5746.116406
3557.419140	5745.870196
3558.819607	5754.928215
3560.220073	5768.491207
3561.620540	5768.856134
3563.021007	5767.667059
3564.421474	5775.379604
3565.821941	5776.094338
3567.222407	5762.876045
3568.622874	5764.963831
3570.023341	5772.200648
3571.423808	5790.350644
3572.824275	5782.807094
3574.224742	5825.383533
3575.625208	5781.939456
3577.025675	5781.723623
3578.426142	5813.811178
3579.826609	5827.791884
3581.227076	5818.335739
3582.627543	5827.683548
3584.028009	5841.050847
3585.428476	5822.871966
3586.828943	5807.686066
3588.229410	5825.922953
3589.629877	5853.201168
3591.030343	5822.390755
3592.430810	5849.826461
3593.831277	5858.543979
3595.231744	5855.583057
3596.632211	5876.898001
3598.032678	5880.642570
3599.433144	5912.806103
3600.833611	5893.511593
3602.234078	5881.477668
3603.634545	5888.784795
3605.035012	5891.524653
3606.435478	5925.270176
3607.835945	5909.680261
3609.236412	5924.542769
3610.636879	5944.476070
3612.037346	5930.259467
3613.437813	5944.826016
3614.838279	5929.985708
3616.238746	5950.007140
3617.639213	5966.643898
3619.039680	5990.599974
3620.440147	6011.769859
3621.840614	6003.407593
3623.241080	6017.749072
3624.641547	6026.833416
3626.042014	6051.426680
3627.442481	6059.769999
3628.842948	6062.078490
3630.243414	6054.819499
3631.643881	6095.971023
3633.044348	6101.018474
3634.444815	6127.056451
3635.845282	6122.042653
3637.245749	6166.139703
3638.646215	6146.350055
3640.046682	6191.083767
3641.447149	6184.962157
3642.847616	6192.161635
3644.248083	6200.303842
3645.648550	6232.978392
3647.049016	6275.331319
3648.449483	6285.727414
3649.849950	6304.118755
3651.250417	6279.297966
3652.650884	6347.644271
3654.051350	6368.303998
3655.451817	6375.699186
3656.852284	6399.571091
3658.252751	6435.093248
3659.653218	6488.323971
3661.053685	6475.193303
3662.454151	6514.491939
3663.854618	6572.624737
3665.255085	6578.279768
3666.655552	6613.859128
3668.056019	6656.815778
3669.456485	6674.537409
3670.856952	6736.159060
3672.257419	6756.437199
3673.657886	6831.732018
3675.058353	6864.668313
3676.458820	6947.486962
3677.859286	6968.678066
3679.259753	7038.976094
3680.660220	7055.957372
3682.060687	7133.891111
3683.461154	7204.217029
3684.861621	7292.879611
3686.262087	7312.749613
3687.662554	7428.328687
3689.063021	7502.397687
3690.463488	7601.482666
3691.863955	7679.382594
3693.264421	7765.362955
3694.664888	7858.746324
3696.065355	7956.414489
3697.465822	8093.723492
3698.866289	8211.214124
3700.266756	8375.931244
3701.667222	8476.883936
3703.067689	8640.854070
3704.468156	8772.830630
3705.868623	8961.861078
3707.269090	9155.087223
3708.669557	9359.741050
3710.070023	9579.074191
3711.470490	9781.376175
3712.870957	10005.652618
3714.271424	10286.309346
3715.671891	10561.825502
3717.072357	10854.550236
3718.472824	11149.016330
3719.873291	11508.700192
3721.273758	11845.374677
3722.674225	12227.090925
3724.074692	12627.970465
3725.475158	13028.955423
3726.875625	13451.992929
3728.276092	13922.130265
3729.676559	14346.200098
3731.077026	14796.491639
3732.477492	15260.515663
3733.877959	15731.031423
3735.278426	16143.866653
3736.678893	16556.774021
3738.079360	16936.995567
3739.479827	17234.025602
3740.880293	17480.930607
3742.280760	17709.934091
3743.681227	17833.950870
3745.081694	17868.345839
3746.482161	17857.761936
3747.882628	17742.744560
3749.283094	17533.710786
3750.683561	17304.365366
3752.084028	16983.356215
3753.484495	16605.512438
3754.884962	16238.265914
3756.285428	15807.117622
3757.685895	15355.256654
3759.086362	14923.935245
3760.486829	14471.570327
3761.887296	14008.446536
3763.287763	13585.615067
3764.688229	13170.741743
3766.088696	12736.866943
3767.489163	12363.290860
3768.889630	11986.731231
3770.290097	11669.409273
3771.690564	11275.897496
3773.091030	11002.077998
3774.491497	10693.741963
3775.891964	10421.678455
3777.292431	10193.881356
3778.692898	9923.836790
3780.093364	9731.686725
3781.493831	9480.107534
3782.894298	9294.298153
3784.294765	9096.712345
3785.695232	8920.619775
3787.095699	8769.871704
3788.496165	8612.924159
3789.896632	8477.974101
3791.297099	8310.000168
3792.697566	8246.481900
3794.098033	8096.450114
3795.498499	8014.703004
3796.898966	7869.645090
3798.299433	7791.452087
3799.699900	7742.537936
3801.100367	7595.305784
3802.500834	7504.129742
3803.901300	7441.148583
3805.301767	7383.486135
3806.702234	7317.827400
3808.102701	7261.519785
3809.503168	7176.507640
3810.903635	7097.761041
3812.304101	7059.723934
3813.704568	7032.134947
3815.105035	6970.446038
3816.505502	6886.516784
3817.905969	6870.080441
3819.306435	6848.496267
3820.706902	6818.388665
3822.107369	6755.808132
3823.507836	6714.725755
3824.908303	6655.890906
3826.308770	6627.858323
3827.709236	6608.736558
3829.109703	6584.533509
3830.510170	6555.987714
3831.910637	6511.683113
3833.311104	6474.350439
3834.711571	6453.872970
3836.112037	6423.170997
3837.512504	6426.181381
3838.912971	6358.815936
3840.313438	6366.386108
3841.713905	6356.886857
3843.114371	6352.546520
3844.514838	6311.146375
3845.915305	6306.200759
3847.315772	6267.008621
3848.716239	6244.313028
3850.116706	6228.489502
3851.517172	6245.252207
3852.917639	6221.574038
3854.318106	6198.844969
3855.718573	6226.890518
3857.119040	6162.358962
3858.519507	6158.539276
3859.919973	6140.698693
3861.320440	6120.047820
3862.720907	6145.831209
3864.121374	6121.803268
3865.521841	6066.713322
3866.922307	6070.578545
3868.322774	6072.225903
3869.723241	6067.112394
3871.123708	6025.026938
3872.524175	6001.621162
3873.924642	5997.359364
3875.325108	6015.675840
3876.725575	6006.258078
3878.126042	6004.313159
3879.526509	5979.173304
3880.926976	5964.183406
3882.327442	5944.265468
3883.727909	5971.839835
3885.128376	5964.961914
3886.528843	5967.025174
3887.929310	5956.913710
3889.329777	5935.307494
3890.730243	5951.711481
3892.130710	5922.912541
3893.531177	5908.705666
3894.931644	5904.638226
3896.332111	5897.666044
3897.732578	5868.100464
3899.133044	5897.231278
3900.533511	5893.080946
3901.933978	5878.486396
3903.334445	5867.937179
3904.734912	5879.078418
3906.135378	5894.238756
3907.535845	5864.167448
3908.936312	5851.206610
3910.336779	5845.292611
3911.737246	5848.573183
3913.137713	5826.211707
3914.538179	5838.972971
3915.938646	5837.540051
3917.339113	5860.161521
3918.739580	5842.608021
3920.140047	5840.023554
3921.540514	5809.965906
3922.940980	5826.943086
3924.341447	5796.122161
3925.741914	5814.292942
3927.142381	5812.374804
3928.542848	5791.155070
3929.943314	5829.274383
3931.343781	5804.499609
3932.744248	5764.224157
3934.144715	5797.902803
3935.545182	5780.410356
3936.945649	5783.518735
3938.346115	5787.524245
3939.746582	5783.496821
3941.147049	5744.212309
3942.547516	5754.643592
3943.947983	5780.883048
3945.348449	5786.142012
3946.748916	5792.555002
3948.149383	5788.491067
3949.549850	5728.097029
3950.950317	5768.008217
3952.350784	5725.305622
3953.751250	5775.884817
3955.151717	5753.157513
3956.552184	5729.960674
3957.952651	5774.990993
3959.353118	5752.308562
3960.753585	5712.129471
3962.154051	5742.786591
3963.554518	5725.344500
3964.954985	5735.946262
3966.355452	5725.301407
3967.755919	5750.920592
3969.156385	5707.043225
3970.556852	5731.262565
3971.957319	5751.857081
3973.357786	5710.415618
3974.758253	5724.187740
3976.158720	5722.297486
3977.559186	5707.192111
3978.959653	5725.556247
3980.360120	5715.623123
3981.760587	5698.369035
3983.161054	5737.341968
3984.561521	5721.199496
3985.961987	5705.258961
3987.362454	5696.681888
3988.762921	5692.958581
3990.163388	5721.705146
3991.563855	5699.585320
3992.964321	5707.239441
3994.364788	5696.169785
3995.765255	5706.794431
3997.165722	5694.442648
3998.566189	5706.296101
3999.966656	5690.767533
4001.367122	5704.657899
4002.767589	5701.018791
4004.168056	5687.922939
4005.568523	5675.534180
4006.968990	5673.107078
4008.369456	5674.894753
4009.769923	5670.053919
4011.170390	5696.641730
4012.570857	5681.807053
4013.971324	5704.926301
4015.371791	5714.450476
4016.772257	5679.526310
4018.172724	5654.861530
4019.573191	5671.294845
4020.973658	5674.837010
4022.374125	5652.606609
4023.774592	5670.156972
4025.175058	5677.214517
4026.575525	5665.029395
4027.975992	5659.419171
4029.376459	5658.602941
4030.776926	5695.836999
4032.177392	5665.707961
4033.577859	5654.732813
4034.978326	5660.680358
4036.378793	5679.693772
4037.779260	5654.225555
4039.179727	5670.853090
4040.580193	5673.685181
4041.980660	5673.156999
4043.381127	5682.080560
4044.781594	5652.004193
4046.182061	5676.439866
4047.582528	5646.754485
4048.982994	5651.908377
4050.383461	5675.017546
4051.783928	5668.642023
4053.184395	5655.578214
4054.584862	5636.925928
4055.985328	5662.482268
4057.385795	5643.871694
4058.786262	5638.748435
4060.186729	5642.173463
4061.587196	5654.890842
4062.987663	5618.684931
4064.388129	5655.227715
4065.788596	5651.749489
4067.189063	5639.706101
4068.589530	5663.369488
4069.989997	5656.337056
4071.390463	5637.429209
4072.790930	5635.839257
4074.191397	5655.690697
4075.591864	5621.903991
4076.992331	5639.045053
4078.392798	5633.965486
4079.793264	5643.883519
4081.193731	5645.413685
4082.594198	5642.217178
4083.994665	5658.113678
4085.395132	5643.944414
4086.795599	5635.237900
4088.196065	5621.245970
4089.596532	5649.689140
4090.996999	5646.242675
4092.397466	5659.548089
4093.797933	5626.045875
4095.198399	5637.131906
4096.598866	5635.339274
4097.999333	5634.395526
4099.399800	5635.361470
4100.800267	5608.989266
4102.200734	5646.589608
4103.601200	5643.526017
4105.001667	5650.203686
4106.402134	5666.514326
4107.802601	5627.515713
4109.203068	5631.292891
4110.603535	5631.521836
4112.004001	5660.053057
4113.404468	5604.502245
4114.804935	5637.312324
4116.205402	5607.523523
4117.605869	5590.427473
4119.006335	5598.408367
4120.406802	5607.568866
4121.807269	5643.909957
4123.207736	5614.432928
4124.608203	5623.634739
4126.008670	5609.186631
4127.409136	5635.400681
4128.809603	5609.308425
4130.210070	5645.208315
4131.610537	5610.156836
4133.011004	5613.195032
4134.411470	5626.126670
4135.811937	5624.278361
4137.212404	5644.904153
4138.612871	5624.969936
4140.013338	5604.680199
4141.413805	5614.030380
4142.814271	5613.485103
4144.214738	5632.597655
4145.615205	5627.127731
4147.015672	5619.232391
4148.416139	5633.723342
4149.816606	5612.411274
4151.217072	5617.958164
4152.617539	5622.379442
4154.018006	5642.260492
4155.418473	5617.532838
4156.818940	5613.425196
4158.219406	5602.679208
4159.619873	5628.340327
4161.020340	5608.920799
4162.420807	5622.579804
4163.821274	5588.592502
4165.221741	5632.459610
4166.622207	5596.530889
4168.022674	5604.550926
4169.423141	5631.793802
4170.823608	5595.604929
4172.224075	5614.139913
4173.624542	5616.158136
4175.025008	5599.781272
4176.425475	5634.621687
4177.825942	5636.680137
4179.226409	5584.347639
4180.626876	5591.913124
4182.027342	5625.500141
4183.427809	5593.562547
4184.828276	5607.012139
4186.228743	5614.521280
4187.629210	5622.694526
4189.029677	5608.709210
4190.430143	5613.229953
4191.830610	5599.896675
4193.231077	5630.681481
4194.631544	5603.617068
4196.032011	5615.895791
4197.432477	5602.880524
4198.832944	5611.907492
4200.233411	5607.549959
4201.633878	5607.397404
4203.034345	5594.391784
4204.434812	5621.310961
4205.835278	5630.343796
4207.235745	5612.550866
4208.636212	5619.661226
4210.036679	5621.021813
4211.437146	5622.147200
4212.837613	5612.556381
4214.238079	5610.970479
4215.638546	5620.529271
4217.039013	5608.386119
4218.439480	5592.531237
4219.839947	5607.286003
4221.240413	5578.392176
4222.640880	5606.421875
4224.041347	5612.504758
4225.441814	5624.639481
4226.842281	5608.166306
4228.242748	5619.618384
4229.643214	5605.489105
4231.043681	5589.947626
4232.444148	5583.933383
4233.844615	5590.364056
4235.245082	5584.225514
4236.645549	5614.032653
4238.046015	5601.223752
4239.446482	5612.705244
4240.846949	5605.066135
4242.247416	5619.441126
4243.647883	5619.500555
4245.048349	5593.736416
4246.448816	5599.122097
4247.849283	5595.066268
4249.249750	5578.562371
4250.650217	5612.835142
4252.050684	5620.365102
4253.451150	5602.264497
4254.851617	5594.792214
4256.252084	5618.384264
4257.652551	5566.678247
4259.053018	5604.348189
4260.453484	5603.670073
4261.853951	5592.794069
4263.254418	5622.067998
4264.654885	5615.594198
4266.055352	5596.955910
4267.455819	5599.414235
4268.856285	5594.737010
4270.256752	5592.719543
4271.657219	5580.623578
4273.057686	5620.792290
4274.458153	5615.360790
4275.858620	5611.762232
4277.259086	5583.224862
4278.659553	5630.703942
4280.060020	5629.046296
4281.460487	5602.018404
4282.860954	5585.489132
4284.261420	5585.912039
4285.661887	5605.043911
4287.062354	5584.928792
4288.462821	5597.970283
4289.863288	5614.673667
4291.263755	5575.603289
4292.664221	5628.154312
4294.064688	5621.432821
4295.465155	5579.240786
4296.865622	5576.458389
4298.266089	5593.278661
4299.666556	5581.930858
4301.067022	5593.311235
4302.467489	5558.419316
4303.867956	5593.577639
4305.268423	5623.923077
4306.668890	5580.004357
4308.069356	5592.531271
4309.469823	5574.158159
4310.870290	5605.951814
4312.270757	5592.875367
4313.671224	5625.243996
4315.071691	5599.114370
4316.472157	5590.308781
4317.872624	5604.026186
4319.273091	5588.060203
4320.673558	5575.446423
4322.074025	5599.948576
4323.474491	5592.680523
4324.874958	5597.683351
4326.275425	5600.706421
4327.675892	5587.306560
4329.076359	5601.172645
4330.476826	5620.802935
4331.877292	5578.009816
4333.277759	5620.578341
4334.678226	5590.765880
4336.078693	5582.800312
4337.479160	5630.600609
4338.879627	5596.411011
4340.280093	5614.535910
4341.680560	5606.138741
4343.081027	5568.561644
4344.481494	5595.479371
4345.881961	5585.684554
4347.282427	5573.335492
4348.682894	5566.785492
4350.083361	5594.795041
4351.483828	5602.014745
4352.884295	5598.921966
4354.284762	5588.376233
4355.685228	5580.888344
4357.085695	5577.966330
4358.486162	5584.345693
4359.886629	5577.081830
4361.287096	5589.433787
4362.687563	5592.045538
4364.088029	5578.855642
4365.488496	5588.722009
4366.888963	5580.705929
4368.289430	5591.952276
4369.689897	5599.534971
4371.090363	5594.510480
4372.490830	5598.831461
4373.891297	5566.880218
4375.291764	5585.891866
4376.692231	5595.635914
4378.092698	5601.015398
4379.493164	5567.341671
4380.893631	5593.613772
4382.294098	5609.237397
4383.694565	5588.377523
4385.095032	5589.551511
4386.495498	5597.646532
4387.895965	5594.513840
4389.296432	5600.844604
4390.696899	5591.729811
4392.097366	5592.850182
4393.497833	5578.745787
4394.898299	5587.846166
4396.298766	5609.120410
4397.699233	5587.182439
4399.099700	5587.638482
4400.500167	5582.716908
4401.900634	5601.820307
4403.301100	5577.115934
4404.701567	5603.517794
4406.102034	5575.730335
4407.502501	5573.843424
4408.902968	5592.724964
4410.303434	5591.514817
4411.703901	5593.952255
4413.104368	5605.354237
4414.504835	5583.156536
4415.905302	5595.917179
4417.305769	5575.553819
4418.706235	5608.017915
4420.106702	5598.547055
4421.507169	5597.038243
4422.907636	5591.739412
4424.308103	5577.068500
4425.708570	5583.873655
4427.109036	5596.243133
4428.509503	5588.361365
4429.909970	5590.438451
4431.310437	5568.118609
4432.710904	5591.166394
4434.111370	5578.005615
4435.511837	5572.069474
4436.912304	5585.934690
4438.312771	5560.343305
4439.713238	5598.605761
4441.113705	5600.844190
4442.514171	5587.199679
4443.914638	5573.032148
4445.315105	5573.696441
4446.715572	5585.548650
4448.116039	5551.398438
4449.516506	5590.400968
4450.916972	5597.600089
4452.317439	5582.895396
4453.717906	5580.098408
4455.118373	5590.184988
4456.518840	5592.656585
4457.919306	5603.751051
4459.319773	5587.556978
4460.720240	5576.877316
4462.120707	5580.247756
4463.521174	5589.839363
4464.921641	5610.397019
4466.322107	5582.194140
4467.722574	5571.154952
4469.123041	5573.836249
4470.523508	5555.388207
4471.923975	5591.725891
4473.324441	5566.305249
4474.724908	5568.168975
4476.125375	5556.978275
4477.525842	5569.795912
4478.926309	5595.039565
4480.326776	5566.791010
4481.727242	5560.165021
4483.127709	5589.032296
4484.528176	5581.189829
4485.928643	5592.739651
4487.329110	5597.314953
4488.729577	5586.029175
4490.130043	5566.640697
4491.530510	5584.200905
4492.930977	5593.512934
4494.331444	5577.215685
4495.731911	5564.350416
4497.132377	5602.403666
4498.532844	5579.588255
4499.933311	5579.631336
4501.333778	5585.962364
4502.734245	5601.133488
4504.134712	5589.584497
4505.535178	5580.585931
4506.935645	5595.770762
4508.336112	5617.698889
4509.736579	5606.265393
4511.137046	5595.497062
4512.537513	5568.525489
4513.937979	5641.596593
4515.338446	5567.292180
4516.738913	5579.651625
4518.139380	5574.687268
4519.539847	5609.546225
4520.940313	5591.403990
4522.340780	5563.651356
4523.741247	5589.030178
4525.141714	5593.178391
4526.542181	5580.156291
4527.942648	5566.589712
4529.343114	5573.976370
4530.743581	5578.258738
4532.144048	5585.112335
4533.544515	5576.932888
4534.944982	5595.720301
4536.345448	5570.403523
4537.745915	5558.642954
4539.146382	5573.484155
4540.546849	5604.769993
4541.947316	5575.901141
4543.347783	5619.572745
4544.748249	5591.795274
4546.148716	5566.919289
4547.549183	5571.834326
4548.949650	5587.962412
4550.350117	5566.610639
4551.750584	5619.857714
4553.151050	5569.339673
4554.551517	5594.381448
4555.951984	5606.033766
4557.352451	5582.458592
4558.752918	5569.123719
4560.153384	5579.930934
4561.553851	5589.425723
4562.954318	5597.094559
4564.354785	5584.775084
4565.755252	5562.887296
4567.155719	5584.492042
4568.556185	5573.723609
4569.956652	5551.042489
4571.357119	5573.294913
4572.757586	5562.239088
4574.158053	5592.496439
4575.558520	5612.824110
4576.958986	5611.511198
4578.359453	5575.000255
4579.759920	5576.556201
4581.160387	5593.867812
4582.560854	5599.424567
4583.961320	5577.193637
4585.361787	5581.304843
4586.762254	5616.518218
4588.162721	5581.772631
4589.563188	5576.074936
4590.963655	5585.124049
4592.364121	5591.991682
4593.764588	5567.942551
4595.165055	5579.512393
4596.565522	5565.714505
4597.965989	5579.007661
4599.366455	5611.307403
4600.766922	5594.251507
4602.167389	5581.709884
4603.567856	5569.073927
4604.968323	5578.372280
4606.368790	5598.777405
4607.769256	5574.564323
4609.169723	5604.719368
4610.570190	5562.332157
4611.970657	5578.559863
4613.371124	5609.026088
4614.771591	5552.741315
4616.172057	5600.659575
4617.572524	5555.037410
4618.972991	5581.431763
4620.373458	5580.170038
4621.773925	5595.097764
4623.174391	5535.390720
4624.574858	5553.917428
4625.975325	5574.170239
4627.375792	5583.190017
4628.776259	5569.214646
4630.176726	5579.276400
4631.577192	5564.773511
4632.977659	5576.523913
4634.378126	5569.818610
4635.778593	5586.157712
4637.179060	5591.196174
4638.579527	5603.946503
4639.979993	5572.584142
4641.380460	5577.638603
4642.780927	5583.102911
4644.181394	5577.941380
4645.581861	5581.563939
4646.982327	5558.889932
4648.382794	5587.877938
4649.783261	5568.552932
4651.183728	5567.905756
4652.584195	5558.417846
4653.984662	5599.634507
4655.385128	5580.090272
4656.785595	5599.421897
4658.186062	5586.244333
4659.586529	5556.589864
4660.986996	5565.865483
4662.387462	5593.470739
4663.787929	5570.597528
4665.188396	5565.708795
4666.588863	5579.354632
4667.989330	5579.372352
4669.389797	5566.830565
4670.790263	5577.098288
4672.190730	5574.795142
4673.591197	5543.104926
4674.991664	5589.477136
4676.392131	5569.749143
4677.792598	5601.469114
4679.193064	5564.633586
4680.593531	5558.174571
4681.993998	5599.666172
4683.394465	5558.059422
4684.794932	5572.276239
4686.195398	5590.762675
4687.595865	5576.841872
4688.996332	5556.938589
4690.396799	5584.575468
4691.797266	5578.824532
4693.197733	5600.981803
4694.598199	5590.538460
4695.998666	5627.229384
4697.399133	5556.990351
4698.799600	5581.338893
4700.200067	5565.649613
4701.600534	5598.956264
4703.001000	5593.948313
4704.401467	5592.917208
4705.801934	5569.932717
4707.202401	5570.401638
4708.602868	5551.120087
4710.003334	5607.194319
4711.403801	5589.161795
4712.804268	5577.612452
4714.204735	5595.515084
4715.605202	5592.763244
4717.005669	5596.115787
4718.406135	5557.121230
4719.806602	5570.754374
4721.207069	5584.381318
4722.607536	5586.768934
4724.008003	5595.784221
4725.408469	5566.284399
4726.808936	5583.310455
4728.209403	5614.471161
4729.609870	5591.758371
4731.010337	5594.426823
4732.410804	5581.069559
4733.811270	5592.860910
4735.211737	5608.395638
4736.612204	5582.924856
4738.012671	5599.674485
4739.413138	5568.177449
4740.813605	5590.145900
4742.214071	5594.847693
4743.614538	5569.994563
4745.015005	5597.736794
4746.415472	5571.126695
4747.815939	5569.167414
4749.216405	5581.218870
4750.616872	5610.207499
4752.017339	5585.855988
4753.417806	5595.246650
4754.818273	5570.224241
4756.218740	5582.355140
4757.619206	5563.535946
4759.019673	5572.609451
4760.420140	5593.702554
4761.820607	5580.584023
4763.221074	5602.921607
4764.621541	5578.108235
4766.022007	5578.167903
4767.422474	5600.279766
4768.822941	5571.393035
4770.223408	5558.318693
4771.623875	5600.627334
4773.024341	5587.314155
4774.424808	5548.616707
4775.825275	5581.756004
4777.225742	5575.024830
4778.626209	5607.247937
4780.026676	5570.134316
4781.427142	5572.351647
4782.827609	5567.401274
4784.228076	5565.240698
4785.628543	5570.538490
4787.029010	5559.501587
4788.429476	5565.567154
4789.829943	5556.931131
4791.230410	5558.565658
4792.630877	5557.624778
4794.031344	5573.197717
4795.431811	5570.755105
4796.832277	5562.608842
4798.232744	5588.175560
4799.633211	5580.276090
4801.033678	5574.513453
4802.434145	5574.029490
4803.834612	5604.878411
4805.235078	5584.578690
4806.635545	5588.108546
4808.036012	5542.183796
4809.436479	5571.165033
4810.836946	5548.402735
4812.237412	5574.571689
4813.637879	5586.561454
4815.038346	5570.844513
4816.438813	5588.735420
4817.839280	5565.612476
4819.239747	5589.588340
4820.640213	5557.644850
4822.040680	5577.021493
4823.441147	5587.241880
4824.841614	5588.981668
4826.242081	5579.032119
4827.642548	5610.035125
4829.043014	5574.721583
4830.443481	5574.171542
4831.843948	5539.542592
4833.244415	5607.468065
4834.644882	5575.398064
4836.045348	5563.291914
4837.445815	5600.744949
4838.846282	5599.463337
4840.246749	5582.555119
4841.647216	5559.406027
4843.047683	5587.214234
4844.448149	5571.608582
4845.848616	5563.367881
4847.249083	5596.580165
4848.649550	5548.940945
4850.050017	5589.437649
4851.450483	5587.821025
4852.850950	5611.696485
4854.251417	5585.809680
4855.651884	5550.056476
4857.052351	5568.392133
4858.452818	5581.905077
4859.853284	5586.269778
4861.253751	5595.649939
4862.654218	5551.544061
4864.054685	5575.991577
4865.455152	5595.490485
4866.855619	5604.103990
4868.256085	5608.861798
4869.656552	5575.095274
4871.057019	5597.414885
4872.457486	5606.628861
4873.857953	5598.926712
4875.258419	5591.813564
4876.658886	5593.377980
4878.059353	5569.115625
4879.459820	5559.258130
4880.860287	5595.712707
4882.260754	5575.767220
4883.661220	5580.554576
4885.061687	5572.299259
4886.462154	5575.090061
4887.862621	5584.478631
4889.263088	5565.663350
4890.663555	5582.022713
4892.064021	5584.690132
4893.464488	5579.843196
4894.864955	5569.853421
4896.265422	5592.811630
4897.665889	5609.106474
4899.066355	5572.002984
4900.466822	5599.543403
4901.867289	5594.370376
4903.267756	5541.237717
4904.668223	5569.623780
4906.068690	5571.509410
4907.469156	5592.779032
4908.869623	5583.885344
4910.270090	5588.179687
4911.670557	5590.613710
4913.071024	5567.591711
4914.471490	5569.883269
4915.871957	5562.744363
4917.272424	5578.539940
4918.672891	5579.313875
4920.073358	5583.675049
4921.473825	5570.204023
4922.874291	5594.718297
4924.274758	5594.884004
4925.675225	5604.332160
4927.075692	5591.811154
4928.476159	5583.931485
4929.876626	5591.242579
4931.277092	5590.310022
4932.677559	5571.394169
4934.078026	5600.519944
4935.478493	5606.964829
4936.878960	5610.849370
4938.279426	5581.731596
4939.679893	5586.075528
4941.080360	5587.465239
4942.480827	5581.190178
4943.881294	5590.526323
4945.281761	5579.428045
4946.682227	5578.347867
4948.082694	5607.648349
4949.483161	5583.743469
4950.883628	5582.287134
4952.284095	5594.521637
4953.684562	5583.555833
4955.085028	5585.684786
4956.485495	5580.366727
4957.885962	5563.023802
4959.286429	5580.875458
4960.686896	5564.296870
4962.087362	5584.512641
4963.487829	5563.649154
4964.888296	5595.131843
4966.288763	5592.630330
4967.689230	5585.608959
4969.089697	5579.911377
4970.490163	5587.668880
4971.890630	5551.960485
4973.291097	5564.994385
4974.691564	5579.227032
4976.092031	5586.648396
4977.492497	5580.290165
4978.892964	5566.423672
4980.293431	5583.506362
4981.693898	5574.711137
4983.094365	5565.499785
4984.494832	5586.483494
4985.895298	5578.403639
4987.295765	5599.513034
4988.696232	5591.561367
4990.096699	5592.611181
4991.497166	5586.428962
4992.897633	5568.939271
4994.298099	5567.595638
4995.698566	5559.575904
4997.099033	5624.841820
4998.499500	5565.478444
4999.899967	5578.536249
5001.300433	5576.291627
5002.700900	5577.494865
5004.101367	5572.964564
5005.501834	5553.714269
5006.902301	5566.780783
5008.302768	5560.908022
5009.703234	5579.880875
5011.103701	5571.534209
5012.504168	5571.504257
5013.904635	5585.065039
5015.305102	5573.100091
5016.705569	5595.838426
5018.106035	5576.079594
5019.506502	5585.265047
5020.906969	5562.023780
5022.307436	5591.771991
5023.707903	5575.856939
5025.108369	5588.081986
5026.508836	5586.916748
5027.909303	5579.381209
5029.309770	5585.260760
5030.710237	5576.236175
5032.110704	5602.223847
5033.511170	5596.063244
5034.911637	5589.303168
5036.312104	5564.380622
5037.712571	5565.610250
5039.113038	5572.159151
5040.513505	5578.459408
5041.913971	5588.872186
5043.314438	5568.721521
5044.714905	5599.843471
5046.115372	5582.259188
5047.515839	5552.031578
5048.916305	5575.111721
5050.316772	5543.482006
5051.717239	5571.002297
5053.117706	5574.059887
5054.518173	5573.159366
5055.918640	5577.455563
5057.319106	5576.441823
5058.719573	5573.466455
5060.120040	5604.929181
5061.520507	5600.634654
5062.920974	5565.303041
5064.321440	5601.258816
5065.721907	5558.149611
5067.122374	5570.270883
5068.522841	5605.388038
5069.923308	5548.937067
5071.323775	5591.172510
5072.724241	5563.768811
5074.124708	5580.431857
5075.525175	5579.909588
5076.925642	5608.091616
5078.326109	5570.495558
5079.726576	5581.640579
5081.127042	5592.102443
5082.527509	5578.941964
5083.927976	5570.409238
5085.328443	5581.874015
5086.728910	5584.186590
5088.129376	5596.066799
5089.529843	5568.682374
5090.930310	5576.113538
5092.330777	5587.717115
5093.731244	5580.388087
5095.131711	5580.139163
5096.532177	5582.686234
5097.932644	5572.526746
5099.333111	5570.992187
5100.733578	5589.621846
5102.134045	5566.607889
5103.534512	5600.538791
5104.934978	5586.341398
5106.335445	5563.957647
5107.735912	5587.375255
5109.136379	5585.663264
5110.536846	5594.610889
5111.937312	5600.585745
5113.337779	5577.731398
5114.738246	5572.636077
5116.138713	5574.187778
5117.539180	5568.586309
5118.939647	5572.131298
5120.340113	5587.620895
5121.740580	5583.607936
5123.141047	5576.034336
5124.541514	5572.356750
5125.941981	5588.674930
5127.342447	5575.958854
5128.742914	5567.906846
5130.143381	5581.260587
5131.543848	5579.594974
5132.944315	5567.538583
5134.344782	5596.023828
5135.745248	5596.333507
5137.145715	5584.284020
5138.546182	5585.663673
5139.946649	5591.635300
5141.347116	5583.289611
5142.747583	5597.150761
5144.148049	5608.649593
5145.548516	5585.045111
5146.948983	5590.469926
5148.349450	5596.996471
5149.749917	5578.852787
5151.150383	5567.027757
5152.550850	5597.571396
5153.951317	5560.479140
5155.351784	5610.872542
5156.752251	5597.126043
5158.152718	5586.914625
5159.553184	5584.895578
5160.953651	5610.429555
5162.354118	5569.996011
5163.754585	5566.816880
5165.155052	5575.278292
5166.555519	5580.354086
5167.955985	5569.214897
5169.356452	5586.650908
5170.756919	5586.413393
5172.157386	5572.197759
5173.557853	5608.482975
5174.958319	5563.587817
5176.358786	5565.349997
5177.759253	5590.174727
5179.159720	5581.452944
5180.560187	5590.863525
5181.960654	5575.345673
5183.361120	5569.162921
5184.761587	5575.012828
5186.162054	5574.475190
5187.562521	5592.637377
5188.962988	5577.596557
5190.363454	5596.251062
5191.763921	5593.684590
5193.164388	5600.506439
5194.564855	5598.442495
5195.965322	5596.731399
5197.365789	5596.548480
5198.766255	5577.285064
5200.166722	5581.142132
5201.567189	5557.653617
5202.967656	5589.517098
5204.368123	5575.069853
5205.768590	5591.235211
5207.169056	5593.160166
5208.569523	5565.002562
5209.969990	5570.112629
5211.370457	5580.116467
5212.770924	5577.629284
5214.171390	5587.935419
5215.571857	5568.135774
5216.972324	5586.212013
5218.372791	5560.214455
5219.773258	5553.252678
5221.173725	5596.367077
5222.574191	5566.075405
5223.974658	5577.294523
5225.375125	5564.471224
5226.775592	5564.637182
5228.176059	5579.826172
5229.576526	5579.696070
5230.976992	5600.625978
5232.377459	5592.669228
5233.777926	5582.049350
5235.178393	5597.371163
5236.578860	5602.794210
5237.979326	5592.255557
5239.379793	5580.031742
5240.780260	5601.446138
5242.180727	5612.735722
5243.581194	5596.156931
5244.981661	5612.850293
5246.382127	5600.230566
5247.782594	5599.106110
5249.183061	5570.062294
5250.583528	5569.753925
5251.983995	5585.757200
5253.384461	5561.500089
5254.784928	5577.690364
5256.185395	5599.637666
5257.585862	5576.693425
5258.986329	5594.711992
5260.386796	5566.488953
5261.787262	5579.396910
5263.187729	5602.197163
5264.588196	5590.017497
5265.988663	5591.288525
5267.389130	5612.549846
5268.789597	5606.475968
5270.190063	5573.916215
5271.590530	5606.882929
5272.990997	5577.931397
5274.391464	5586.942050
5275.791931	5587.480163
5277.192397	5603.393872
5278.592864	5570.405803
5279.993331	5594.169483
5281.393798	5595.298796
5282.794265	5599.658511
5284.194732	5584.377501
5285.595198	5602.632185
5286.995665	5576.955796
5288.396132	5604.883031
5289.796599	5593.009188
5291.197066	5566.773021
5292.597533	5593.941992
5293.997999	5590.561924
5295.398466	5582.586924
5296.798933	5576.927627
5298.199400	5584.418448
5299.599867	5566.439147
5301.000333	5613.482706
5302.400800	5571.248396
5303.801267	5578.304249
5305.201734	5605.448154
5306.602201	5597.101560
5308.002668	5599.181464
5309.403134	5611.180355
5310.803601	5583.799792
5312.204068	5572.836976
5313.604535	5601.251148
5315.005002	5600.584295
5316.405468	5583.790037
5317.805935	5569.763204
5319.206402	5607.387953
5320.606869	5597.492467
5322.007336	5568.306980
5323.407803	5600.663000
5324.808269	5567.403909
5326.208736	5581.834266
5327.609203	5572.279510
5329.009670	5579.617399
5330.410137	5576.741178
5331.810604	5580.097447
5333.211070	5600.217616
5334.611537	5593.829353
5336.012004	5598.898578
5337.412471	5605.910139
5338.812938	5583.992160
5340.213404	5590.839098
5341.613871	5597.771244
5343.014338	5615.358591
5344.414805	5603.302544
5345.815272	5610.598791
5347.215739	5605.219445
5348.616205	5605.853705
5350.016672	5563.284721
5351.417139	5603.328014
5352.817606	5593.369654
5354.218073	5591.049958
5355.618540	5582.389184
5357.019006	5583.980477
5358.419473	5596.664186
5359.819940	5603.083311
5361.220407	5568.079403
5362.620874	5593.880573
5364.021340	5582.261860
5365.421807	5576.473585
5366.822274	5596.688746
5368.222741	5585.932752
5369.623208	5581.042402
5371.023675	5579.455235
5372.424141	5595.277280
5373.824608	5590.972640
5375.225075	5574.814357
5376.625542	5578.640080
5378.026009	5588.583864
5379.426475	5597.465433
5380.826942	5575.709593
5382.227409	5598.844344
5383.627876	5579.230483
5385.028343	5632.574817
5386.428810	5577.612076
5387.829276	5579.944055
5389.229743	5594.775160
5390.630210	5578.398919
5392.030677	5604.418982
5393.431144	5619.095996
5394.831611	5586.331050
5396.232077	5594.807870
5397.632544	5584.521231
5399.033011	5592.358880
5400.433478	5613.907385
5401.833945	5605.917488
5403.234411	5579.013219
5404.634878	5615.838330
5406.035345	5610.154234
5407.435812	5600.092767
5408.836279	5582.983291
5410.236746	5593.931858
5411.637212	5581.089335
5413.037679	5600.110878
5414.438146	5588.425583
5415.838613	5559.724470
5417.239080	5607.218593
5418.639547	5596.274386
5420.040013	5609.657281
5421.440480	5591.515186
5422.840947	5596.463133
5424.241414	5610.444686
5425.641881	5599.610820
5427.042347	5598.193372
5428.442814	5642.169108
5429.843281	5591.498557
5431.243748	5596.652082
5432.644215	5620.205885
5434.044682	5582.201924
5435.445148	5578.744093
5436.845615	5572.960510
5438.246082	5602.529312
5439.646549	5603.992152
5441.047016	5605.813759
5442.447482	5574.472240
5443.847949	5609.948169
5445.248416	5612.904359
5446.648883	5593.571241
5448.049350	5595.605401
5449.449817	5605.337291
5450.850283	5600.797416
5452.250750	5605.007180
5453.651217	5579.174181
5455.051684	5592.934442
5456.452151	5577.455454
5457.852618	5605.200961
5459.253084	5603.774783
5460.653551	5594.429521
5462.054018	5600.454428
5463.454485	5572.745876
5464.854952	5609.054172
5466.255418	5589.268393
5467.655885	5598.305886
5469.056352	5613.193830
5470.456819	5585.209441
5471.857286	5614.609626
5473.257753	5598.606937
5474.658219	5597.263857
5476.058686	5605.277403
5477.459153	5578.327572
5478.859620	5606.041308
5480.260087	5598.149646
5481.660554	5612.868978
5483.061020	5594.171072
5484.461487	5592.072310
5485.861954	5603.166080
5487.262421	5596.830973
5488.662888	5580.212492
5490.063354	5595.013742
5491.463821	5617.039202
5492.864288	5596.730401
5494.264755	5585.172828
5495.665222	5609.072122
5497.065689	5570.635326
5498.466155	5566.737463
5499.866622	5598.584290
5501.267089	5601.466080
5502.667556	5602.164438
5504.068023	5585.573548
5505.468489	5596.815236
5506.868956	5578.199774
5508.269423	5602.582856
5509.669890	5575.168899
5511.070357	5597.269916
5512.470824	5603.542741
5513.871290	5573.380786
5515.271757	5592.004375
5516.672224	5611.776495
5518.072691	5623.301839
5519.473158	5577.621579
5520.873625	5605.394069
5522.274091	5581.871014
5523.674558	5580.347003
5525.075025	5624.583261
5526.475492	5610.781834
5527.875959	5588.813804
5529.276425	5604.280428
5530.676892	5610.743185
5532.077359	5603.953043
5533.477826	5635.063189
5534.878293	5610.561746
5536.278760	5556.702089
5537.679226	5597.366278
5539.079693	5590.793805
5540.480160	5598.904139
5541.880627	5602.292945
5543.281094	5592.449157
5544.681561	5586.068617
5546.082027	5622.920283
5547.482494	5611.556896
5548.882961	5592.663993
5550.283428	5613.048903
5551.683895	5613.111705
5553.084361	5622.124216
5554.484828	5587.416287
5555.885295	5615.076375
5557.285762	5594.394276
5558.686229	5620.970514
5560.086696	5600.892653
5561.487162	5569.838052
5562.887629	5604.581212
5564.288096	5577.425446
5565.688563	5601.068449
5567.089030	5603.591453
5568.489496	5598.584229
5569.889963	5582.440327
5571.290430	5588.149365
5572.690897	5592.358472
5574.091364	5601.448599
5575.491831	5624.641495
5576.892297	5616.094929
5578.292764	5598.521255
5579.693231	5624.858779
5581.093698	5585.377008
5582.494165	5616.321504
5583.894632	5603.566820
5585.295098	5609.890291
5586.695565	5616.073362
5588.096032	5596.454753
5589.496499	5618.818646
5590.896966	5606.815474
5592.297432	5643.286919
5593.697899	5602.701802
5595.098366	5626.460102
5596.498833	5617.286583
5597.899300	5590.127073
5599.299767	5628.308049
5600.700233	5592.153310
5602.100700	5574.741323
5603.501167	5621.183792
5604.901634	5624.582203
5606.302101	5609.493178
5607.702568	5604.963450
5609.103034	5632.800978
5610.503501	5619.891858
5611.903968	5599.545016
5613.304435	5620.526261
5614.704902	5591.075254
5616.105368	5601.512584
5617.505835	5594.303748
5618.906302	5577.245164
5620.306769	5592.761904
5621.707236	5628.933229
5623.107703	5594.309162
5624.508169	5602.705360
5625.908636	5593.721768
5627.309103	5624.302206
5628.709570	5611.518987
5630.110037	5619.046346
5631.510504	5610.285230
5632.910970	5594.491729
5634.311437	5597.635839
5635.711904	5624.993076
5637.112371	5611.763361
5638.512838	5624.432143
5639.913304	5565.570127
5641.313771	5629.854949
5642.714238	5605.989379
5644.114705	5646.188643
5645.515172	5606.132695
5646.915639	5614.417645
5648.316105	5624.100233
5649.716572	5601.259975
5651.117039	5627.691696
5652.517506	5605.127518
5653.917973	5634.348849
5655.318439	5627.118374
5656.718906	5622.864250
5658.119373	5604.777666
5659.519840	5612.694361
5660.920307	5620.565438
5662.320774	5585.781957
5663.721240	5608.222707
5665.121707	5630.788426
5666.522174	5597.914532
5667.922641	5636.343396
5669.323108	5607.957045
5670.723575	5622.455272
5672.124041	5600.617696
5673.524508	5625.326190
5674.924975	5625.230934
5676.325442	5635.566771
5677.725909	5639.065029
5679.126375	5637.791333
5680.526842	5622.358463
5681.927309	5601.070134
5683.327776	5639.558724
5684.728243	5600.381631
5686.128710	5613.606178
5687.529176	5631.488416
5688.929643	5627.331918
5690.330110	5644.823122
5691.730577	5621.116771
5693.131044	5596.078830
5694.531511	5617.555159
5695.931977	5624.551013
5697.332444	5616.938958
5698.732911	5643.644823
5700.133378	5619.005715
5701.533845	5601.446057
5702.934311	5630.251470
5704.334778	5606.302231
5705.735245	5649.285815
5707.135712	5628.110827
5708.536179	5603.284215
5709.936646	5640.800532
5711.337112	5660.426654
5712.737579	5595.107566
5714.138046	5638.997134
5715.538513	5632.996267
5716.938980	5628.658100
5718.339446	5631.462107
5719.739913	5633.982020
5721.140380	5616.502509
5722.540847	5648.358593
5723.941314	5607.249390
5725.341781	5657.171578
5726.742247	5651.011705
5728.142714	5610.610062
5729.543181	5628.629223
5730.943648	5650.318721
5732.344115	5621.969033
5733.744582	5627.213464
5735.145048	5623.932131
5736.545515	5647.800671
5737.945982	5621.496740
5739.346449	5630.790645
5740.746916	5639.369982
5742.147382	5628.484152
5743.547849	5618.935868
5744.948316	5612.146043
5746.348783	5609.835155
5747.749250	5615.254498
5749.149717	5607.488742
5750.550183	5622.742155
5751.950650	5638.499780
5753.351117	5635.162205
5754.751584	5622.308494
5756.152051	5619.797956
5757.552518	5620.530732
5758.952984	5614.979517
5760.353451	5617.629393
5761.753918	5647.255731
5763.154385	5615.847104
5764.554852	5637.555241
5765.955318	5628.407218
5767.355785	5674.483052
5768.756252	5611.499199
5770.156719	5641.745285
5771.557186	5634.235624
5772.957653	5628.074540
5774.358119	5644.772847
5775.758586	5642.785167
5777.159053	5624.828197
5778.559520	5647.669989
5779.959987	5647.531134
5781.360453	5661.757198
5782.760920	5633.390947
5784.161387	5665.026409
5785.561854	5640.450624
5786.962321	5614.199804
5788.362788	5652.127544
5789.763254	5643.502436
5791.163721	5631.940325
5792.564188	5659.627663
5793.964655	5639.012327
5795.365122	5661.802006
5796.765589	5645.774509
5798.166055	5658.740547
5799.566522	5658.153030
5800.966989	5655.538032
5802.367456	5633.444077
5803.767923	5663.209264
5805.168389	5650.233524
5806.568856	5680.439289
5807.969323	5658.088519
5809.369790	5662.683336
5810.770257	5640.455964
5812.170724	5646.355163
5813.571190	5654.421064
5814.971657	5635.941310
5816.372124	5636.477666
5817.772591	5652.941753
5819.173058	5653.946459
5820.573525	5658.695122
5821.973991	5672.975547
5823.374458	5650.774503
5824.774925	5667.558948
5826.175392	5655.748282
5827.575859	5655.585464
5828.976325	5662.935409
5830.376792	5628.653208
5831.777259	5661.260314
5833.177726	5651.293101
5834.578193	5647.527648
5835.978660	5633.784970
5837.379126	5656.067535
5838.779593	5635.176959
5840.180060	5677.024582
5841.580527	5661.024092
5842.980994	5640.030424
5844.381460	5655.813361
5845.781927	5677.902311
5847.182394	5658.323667
5848.582861	5663.704816
5849.983328	5663.068859
5851.383795	5667.373462
5852.784261	5644.499681
5854.184728	5670.020575
5855.585195	5663.045185
5856.985662	5716.445311
5858.386129	5669.673607
5859.786596	5666.772664
5861.187062	5689.180807
5862.587529	5672.768238
5863.987996	5679.672504
5865.388463	5663.533002
5866.788930	5700.754389
5868.189396	5668.801075
5869.589863	5684.645820
5870.990330	5696.809591
5872.390797	5676.074758
5873.791264	5681.467798
5875.191731	5691.105188
5876.592197	5693.395084
5877.992664	5667.660832
5879.393131	5687.602240
5880.793598	5671.577563
5882.194065	5675.466242
5883.594532	5677.820392
5884.994998	5706.696343
5886.395465	5713.326888
5887.795932	5729.392896
5889.196399	5690.407252
5890.596866	5679.590525
5891.997332	5678.637445
5893.397799	5718.272057
5894.798266	5672.076688
5896.198733	5691.402908
5897.599200	5688.684347
5898.999667	5724.456087
5900.400133	5684.050101
5901.800600	5716.832795
5903.201067	5721.079444
5904.601534	5699.962869
5906.002001	5710.546343
5907.402467	5681.597176
5908.802934	5704.483501
5910.203401	5703.724961
5911.603868	5669.415677
5913.004335	5715.514707
5914.404802	5715.802063
5915.805268	5686.280620
5917.205735	5691.720302
5918.606202	5702.905080
5920.006669	5707.463790
5921.407136	5712.080579
5922.807603	5703.596543
5924.208069	5704.161025
5925.608536	5725.205546
5927.009003	5714.826946
5928.409470	5721.720705
5929.809937	5721.264172
5931.210403	5732.974034
5932.610870	5725.228969
5934.011337	5741.914065
5935.411804	5732.005072
5936.812271	5745.286404
5938.212738	5752.170039
5939.613204	5713.092168
5941.013671	5750.387768
5942.414138	5764.882244
5943.814605	5725.158071
5945.215072	5740.898576
5946.615539	5737.674258
5948.016005	5751.326103
5949.416472	5754.220888
5950.816939	5738.115700
5952.217406	5769.604895
5953.617873	5738.855636
5955.018339	5751.448866
5956.418806	5770.724471
5957.819273	5786.548875
5959.219740	5751.464650
5960.620207	5772.827208
5962.020674	5766.363571
5963.421140	5741.329020
5964.821607	5752.773903
5966.222074	5751.100310
5967.622541	5763.727147
5969.023008	5767.165815
5970.423474	5776.014148
5971.823941	5796.975014
5973.224408	5786.399740
5974.624875	5822.150752
5976.025342	5781.035778
5977.425809	5798.899523
5978.826275	5795.692591
5980.226742	5814.533794
5981.627209	5788.757694
5983.027676	5809.665810
5984.428143	5824.018048
5985.828610	5791.412459
5987.229076	5803.793167
5988.629543	5815.222573
5990.030010	5803.929463
5991.430477	5800.168444
5992.830944	5843.688203
5994.231410	5815.708137
5995.631877	5848.177014
5997.032344	5817.610536
5998.432811	5825.262021
5999.833278	5843.518647
6001.233745	5831.727923
6002.634211	5824.657023
6004.034678	5830.730194
6005.435145	5849.076605
6006.835612	5838.523234
6008.236079	5853.437145
6009.636546	5821.932847
6011.037012	5851.173264
6012.437479	5860.672557
6013.837946	5859.601206
6015.238413	5856.384469
6016.638880	5862.119437
6018.039346	5880.602409
6019.439813	5906.114578
6020.840280	5867.190622
6022.240747	5888.478536
6023.641214	5911.833650
6025.041681	5906.853350
6026.442147	5905.194989
6027.842614	5904.715125
6029.243081	5916.662232
6030.643548	5920.051422
6032.044015	5893.994831
6033.444481	5921.403522
6034.844948	5908.373089
6036.245415	5962.591720
6037.645882	5961.311168
6039.046349	5943.034612
6040.446816	5972.963767
6041.847282	6003.803448
6043.247749	5964.066448
6044.648216	5999.401576
6046.048683	5992.016364
6047.449150	5989.866837
6048.849617	5983.845356
6050.250083	5999.296180
6051.650550	6009.103224
6053.051017	5987.879679
6054.451484	6038.367206
6055.851951	6033.590151
6057.252417	6053.530131
6058.652884	6048.805862
6060.053351	6108.756914
6061.453818	6047.856505
6062.854285	6067.906255
6064.254752	6101.929434
6065.655218	6136.450226
6067.055685	6096.191686
6068.456152	6148.814534
6069.856619	6118.223955
6071.257086	6162.299368
6072.657553	6155.277768
6074.058019	6199.186009
6075.458486	6204.409402
6076.858953	6180.275574
6078.259420	6246.721306
6079.659887	6198.915349
6081.060353	6224.578581
6082.460820	6270.336106
6083.861287	6246.576966
6085.261754	6262.823769
6086.662221	6289.731403
6088.062688	6310.388894
6089.463154	6325.760635
6090.863621	6325.661106
6092.264088	6357.257487
6093.664555	6381.909134
6095.065022	6413.560538
6096.465488	6415.209188
6097.865955	6411.436089
6099.266422	6451.284459
6100.666889	6462.886418
6102.067356	6514.054656
6103.467823	6491.976209
6104.868289	6549.134765
6106.268756	6549.210877
6107.669223	6609.577009
6109.069690	6628.249019
6110.470157	6647.068160
6111.870624	6679.390197
6113.271090	6695.772192
6114.671557	6740.972377
6116.072024	6761.131773
6117.472491	6804.942983
6118.872958	6828.037488
6120.273424	6824.235240
6121.673891	6889.175858
6123.074358	6956.224336
6124.474825	6993.001824
6125.875292	7011.717180
6127.275759	7048.385215
6128.676225	7086.567772
6130.076692	7143.565535
6131.477159	7186.481399
6132.877626	7207.955754
6134.278093	7278.540363
6135.678560	7334.168151
6137.079026	7349.442404
6138.479493	7410.017191
6139.879960	7469.708533
6141.280427	7524.313043
6142.680894	7558.544820
6144.081360	7608.832410
6145.481827	7662.087199
6146.882294	7727.304274
6148.282761	7780.443831
6149.683228	7825.980954
6151.083695	7857.620859
6152.484161	7912.837222
6153.884628	7988.859772
6155.285095	8009.841039
6156.685562	8078.832550
6158.086029	8115.427430
6159.486495	8155.019714
6160.886962	8205.169942
6162.287429	8267.832174
6163.687896	8281.849735
6165.088363	8304.558061
6166.488830	8314.770700
6167.889296	8368.625233
6169.289763	8398.081376
6170.690230	8406.117791
6172.090697	8426.273654
6173.491164	8423.472881
6174.891631	8400.087204
6176.292097	8418.106635
6177.692564	8421.737202
6179.093031	8415.852596
6180.493498	8385.096397
6181.893965	8375.506978
6183.294431	8362.678639
6184.694898	8354.044367
6186.095365	8325.190650
6187.495832	8292.610486
6188.896299	8259.649541
6190.296766	8207.425624
6191.697232	8174.014619
6193.097699	8155.810057
6194.498166	8138.702519
6195.898633	8094.414631
6197.299100	8062.086735
6198.699567	7996.360633
6200.100033	7962.428487
6201.500500	7967.084692
6202.900967	7916.352283
6204.301434	7864.573450
6205.701901	7865.890348
6207.102367	7826.012743
6208.502834	7837.120570
6209.903301	7783.628682
6211.303768	7743.520702
6212.704235	7710.982063
6214.104702	7693.212831
6215.505168	7666.274114
6216.905635	7625.969356
6218.306102	7642.892307
6219.706569	7616.253995
6221.107036	7555.713355
6222.507503	7574.178717
6223.907969	7559.753297
6225.308436	7577.184036
6226.708903	7553.926113
6228.109370	7570.860042
6229.509837	7520.499406
6230.910303	7525.935815
6232.310770	7557.673344
6233.711237	7533.344973
6235.111704	7530.732172
6236.512171	7544.104117
6237.912638	7547.978284
6239.313104	7576.843677
6240.713571	7596.942039
6242.114038	7569.853758
6243.514505	7604.894683
6244.914972	7627.222233
6246.315438	7648.194357
6247.715905	7681.665721
6249.116372	7695.479536
6250.516839	7711.871468
6251.917306	7733.216351
6253.317773	7754.363518
6254.718239	7810.599754
6256.118706	7853.493770
6257.519173	7906.986226
6258.919640	7930.247549
6260.320107	8016.500893
6261.720574	8029.320665
6263.121040	8075.252734
6264.521507	8143.588161
6265.921974	8182.175002
6267.322441	8262.343214
6268.722908	8294.498351
6270.123374	8405.784970
6271.523841	8470.927931
6272.924308	8551.644812
6274.324775	8633.821481
6275.725242	8700.046665
6277.125709	8798.158504
6278.526175	8932.644110
6279.926642	9019.297282
6281.327109	9111.065734
6282.727576	9240.095080
6284.128043	9359.442321
6285.528510	9508.160949
6286.928976	9627.146085
6288.329443	9754.576216
6289.729910	9885.973368
6291.130377	10070.233147
6292.530844	10199.222042
6293.931310	10351.439648
6295.331777	10516.350000
6296.732244	10698.121757
6298.132711	10888.001454
6299.533178	11092.998740
6300.933645	11288.449758
6302.334111	11489.825817
6303.734578	11676.479881
6305.135045	11891.180798
6306.535512	12118.923181
6307.935979	12305.534356
6309.336445	12521.822607
6310.736912	12678.416878
6312.137379	12888.812521
6313.537846	13081.111709
6314.938313	13236.117599
6316.338780	13450.517221
6317.739246	13630.428107
6319.139713	13746.393460
6320.540180	13884.833150
6321.940647	13977.161680
6323.341114	14069.480031
6324.741581	14145.342810
6326.142047	14163.520151
6327.542514	14214.908826
6328.942981	14159.498271
6330.343448	14159.369493
6331.743915	14089.267064
6333.144381	14037.909970
6334.544848	13924.116144
6335.945315	13758.388553
6337.345782	13612.036110
6338.746249	13475.920160
6340.146716	13312.017601
6341.547182	13133.601844
6342.947649	12944.263428
6344.348116	12753.910746
6345.748583	12517.959773
6347.149050	12302.604070
6348.549517	12122.786653
6349.949983	11902.720830
6351.350450	11696.806566
6352.750917	11481.190397
6354.151384	11283.895402
6355.551851	11108.491067
6356.952317	10866.224143
6358.352784	10681.766156
6359.753251	10524.937516
6361.153718	10359.860682
6362.554185	10160.361295
6363.954652	9977.769964
6365.355118	9806.166319
6366.755585	9685.754081
6368.156052	9514.894846
6369.556519	9424.082730
6370.956986	9290.280072
6372.357452	9127.995899
6373.757919	9006.895006
6375.158386	8878.237915
6376.558853	8782.715997
6377.959320	8656.116510
6379.359787	8552.477392
6380.760253	8471.888517
6382.160720	8365.223459
6383.561187	8296.341713
6384.961654	8152.378470
6386.362121	8084.973660
6387.762588	7999.768671
6389.163054	7949.444359
6390.563521	7856.208561
6391.963988	7802.587050
6393.364455	7708.949236
6394.764922	7660.847500
6396.165388	7635.203676
6397.565855	7566.385559
6398.966322	7457.142549
6400.366789	7436.629296
6401.767256	7391.611546
6403.167723	7321.978772
6404.568189	7265.013336
6405.968656	7245.556504
6407.369123	7193.033233
6408.769590	7157.432500
6410.170057	7106.043969
6411.570524	7104.221191
6412.970990	7017.879625
6414.371457	6987.905195
6415.771924	6968.184359
6417.172391	6937.848140
6418.572858	6873.837664
6419.973324	6882.803355
6421.373791	6811.422604
6422.774258	6804.415792
6424.174725	6771.766436
6425.575192	6738.790537
6426.975659	6740.374542
6428.376125	6663.037665
6429.776592	6663.007268
6431.177059	6636.974056
6432.577526	6640.971366
6433.977993	6629.189205
6435.378459	6596.370855
6436.778926	6585.164935
6438.179393	6511.026510
6439.579860	6527.643146
6440.980327	6485.847280
6442.380794	6482.956665
6443.781260	6474.800911
6445.181727	6455.638937
6446.582194	6458.462427
6447.982661	6392.250741
6449.383128	6393.976704
6450.783595	6369.345737
6452.184061	6352.458193
6453.584528	6378.037330
6454.984995	6352.007267
6456.385462	6359.335067
6457.785929	6340.858817
6459.186395	6311.563927
6460.586862	6283.811191
6461.987329	6301.386195
6463.387796	6264.617134
6464.788263	6245.798055
6466.188730	6235.636753
6467.589196	6244.118881
6468.989663	6250.956538
6470.390130	6222.719983
6471.790597	6230.519892
6473.191064	6204.002609
6474.591531	6186.962577
6475.991997	6225.143332
6477.392464	6202.839504
6478.792931	6169.899669
6480.193398	6146.102218
6481.593865	6126.298641
6482.994331	6148.506555
6484.394798	6130.902349
6485.795265	6134.179409
6487.195732	6124.643981
6488.596199	6119.145345
6489.996666	6122.710834
6491.397132	6103.435023
6492.797599	6081.177369
6494.198066	6073.936208
6495.598533	6087.860132
6496.999000	6056.803465
6498.399466	6077.568115
6499.799933	6071.558256
6501.200400	6054.375676
6502.600867	6037.633439
6504.001334	6017.159079
6505.401801	6021.518933
6506.802267	6008.685068
6508.202734	6028.287672
6509.603201	6016.181590
6511.003668	6004.045831
6512.404135	6026.093196
6513.804602	6010.197958
6515.205068	6004.328495
6516.605535	6007.443074
6518.006002	6010.172067
6519.406469	5966.231642
6520.806936	5996.615204
6522.207402	5954.711847
6523.607869	5965.848607
6525.008336	5988.950331
6526.408803	5980.223428
6527.809270	5975.994203
6529.209737	5965.001386
6530.610203	5979.788839
6532.010670	5931.881407
6533.411137	5946.888622
6534.811604	5948.720237
6536.212071	5975.153112
6537.612538	5956.704024
6539.013004	5953.630609
6540.413471	5923.447333
6541.813938	5965.489134
6543.214405	5935.759921
6544.614872	5910.592967
6546.015338	5957.920317
6547.415805	5898.452103
6548.816272	5903.997418
6550.216739	5910.745201
6551.617206	5896.830103
6553.017673	5916.778424
6554.418139	5910.407063
6555.818606	5905.393991
6557.219073	5929.583489
6558.619540	5874.200075
6560.020007	5916.785794
6561.420473	5881.546784
6562.820940	5913.520751
6564.221407	5917.882458
6565.621874	5921.586796
6567.022341	5882.007434
6568.422808	5865.259423
6569.823274	5885.511040
6571.223741	5877.715289
6572.624208	5850.035777
6574.024675	5885.512638
6575.425142	5858.677720
6576.825609	5892.223186
6578.226075	5883.181685
6579.626542	5862.630658
6581.027009	5865.574296
6582.427476	5859.608390
6583.827943	5854.634372
6585.228409	5906.250977
6586.628876	5844.046464
6588.029343	5857.264036
6589.429810	5869.681470
6590.830277	5847.450033
6592.230744	5842.222441
6593.631210	5830.178732
6595.031677	5866.489115
6596.432144	5857.810125
6597.832611	5852.728234
6599.233078	5821.623608
6600.633545	5850.412295
6602.034011	5845.767348
6603.434478	5835.071824
6604.834945	5818.171996
6606.235412	5836.678091
6607.635879	5823.195396
6609.036345	5836.212309
6610.436812	5834.739312
6611.837279	5827.517532
6613.237746	5844.643842
6614.638213	5829.268833
6616.038680	5837.064151
6617.439146	5834.293935
6618.839613	5842.052003
6620.240080	5811.401130
6621.640547	5819.635855
6623.041014	5837.619210
6624.441480	5825.086295
6625.841947	5838.684231
6627.242414	5832.009182
6628.642881	5813.212973
6630.043348	5832.162431
6631.443815	5814.182753
6632.844281	5831.502785
6634.244748	5844.087001
6635.645215	5831.799149
6637.045682	5848.930066
6638.446149	5790.493519
6639.846616	5804.738453
6641.247082	5808.182629
6642.647549	5805.403824
6644.048016	5816.241724
6645.448483	5804.396410
6646.848950	5825.788682
6648.249416	5823.263296
6649.649883	5814.004387
6651.050350	5791.944862
6652.450817	5814.679622
6653.851284	5815.939307
6655.251751	5810.503977
6656.652217	5805.031155
6658.052684	5824.985858
6659.453151	5795.169167
6660.853618	5797.322546
6662.254085	5812.270892
6663.654552	5809.682722
6665.055018	5813.979206
6666.455485	5796.412907
6667.855952	5780.448584
6669.256419	5781.114682
6670.656886	5792.710547
6672.057352	5810.622080
6673.457819	5810.167432
6674.858286	5770.605132
6676.258753	5805.424999
6677.659220	5795.693227
6679.059687	5780.967273
6680.460153	5829.069770
6681.860620	5799.788723
6683.261087	5807.873600
6684.661554	5833.619962
6686.062021	5786.046574
6687.462487	5788.479264
6688.862954	5816.445462
6690.263421	5774.185524
6691.663888	5794.611585
6693.064355	5793.907885
6694.464822	5807.490882
6695.865288	5798.753391
6697.265755	5778.719951
6698.666222	5806.757132
6700.066689	5804.617045
6701.467156	5775.951601
6702.867623	5781.186878
6704.268089	5783.414401
6705.668556	5773.869241
6707.069023	5806.897337
6708.469490	5785.897771
6709.869957	5786.426050
6711.270423	5774.875194
6712.670890	5784.381342
6714.071357	5812.441391
6715.471824	5801.268863
6716.872291	5765.670667
6718.272758	5774.982702
6719.673224	5799.268551
6721.073691	5782.178405
6722.474158	5781.276763
6723.874625	5776.602455
6725.275092	5769.487586
6726.675559	5790.836001
6728.076025	5783.664818
6729.476492	5806.445949
6730.876959	5788.320144
6732.277426	5774.832728
6733.677893	5799.715915
6735.078359	5809.508537
6736.478826	5778.296685
6737.879293	5763.819384
6739.279760	5782.207648
6740.680227	5769.186401
6742.080694	5814.110980
6743.481160	5768.730927
6744.881627	5784.700738
6746.282094	5811.796700
6747.682561	5802.848393
6749.083028	5782.170200
6750.483494	5778.232628
6751.883961	5787.368133
6753.284428	5786.608745
6754.684895	5812.786012
6756.085362	5788.157461
6757.485829	5770.373721
6758.886295	5805.564089
6760.286762	5806.488089
6761.687229	5787.709113
6763.087696	5802.872221
6764.488163	5792.246654
6765.888630	5773.571891
6767.289096	5790.661939
6768.689563	5774.920351
6770.090030	5782.798910
6771.490497	5778.456727
6772.890964	5797.770053
6774.291430	5795.820039
6775.691897	5773.481206
6777.092364	5779.740384
6778.492831	5793.767833
6779.893298	5801.051921
6781.293765	5795.456388
6782.694231	5761.565395
6784.094698	5814.273601
6785.495165	5821.865583
6786.895632	5819.356844
6788.296099	5804.088725
6789.696566	5806.342332
6791.097032	5786.793202
6792.497499	5799.786480
6793.897966	5780.358248
6795.298433	5799.512148
6796.698900	5776.616589
6798.099366	5807.224436
6799.499833	5793.520689
6800.900300	5810.745882
6802.300767	5802.387486
6803.701234	5793.172739
6805.101701	5813.141499
6806.502167	5783.324260
6807.902634	5797.394519
6809.303101	5793.754384
6810.703568	5813.435657
6812.104035	5801.610162
6813.504502	5807.268305
6814.904968	5811.583552
6816.305435	5769.001565
6817.705902	5790.798702
6819.106369	5806.940987
6820.506836	5820.906147
6821.907302	5814.833224
6823.307769	5826.439750
6824.708236	5803.996223
6826.108703	5809.381612
6827.509170	5800.933767
6828.909637	5802.463566
6830.310103	5797.118571
6831.710570	5802.010995
6833.111037	5807.896895
6834.511504	5801.582985
6835.911971	5812.365992
6837.312437	5785.307656
6838.712904	5819.634733
6840.113371	5816.514929
6841.513838	5821.192685
6842.914305	5808.201839
6844.314772	5808.194936
6845.715238	5831.226520
6847.115705	5814.855398
6848.516172	5847.662057
6849.916639	5797.471965
6851.317106	5815.562268
6852.717573	5803.080282
6854.118039	5808.917043
6855.518506	5809.604886
6856.918973	5814.989593
6858.319440	5834.698340
6859.719907	5806.561790
6861.120373	5833.644278
6862.520840	5803.664145
6863.921307	5819.987443
6865.321774	5846.669895
6866.722241	5834.615432
6868.122708	5832.590695
6869.523174	5838.789496
6870.923641	5838.818721
6872.324108	5840.450198
6873.724575	5852.945962
6875.125042	5817.185047
6876.525509	5832.581623
6877.925975	5844.092656
6879.326442	5846.679294
6880.726909	5844.716751
6882.127376	5856.865403
6883.527843	5830.684214
6884.928309	5818.895507
6886.328776	5859.179729
6887.729243	5841.045010
6889.129710	5833.800474
6890.530177	5843.551533
6891.930644	5837.526090
6893.331110	5860.109246
6894.731577	5859.385391
6896.132044	5851.736598
6897.532511	5856.212385
6898.932978	5849.638293
6900.333444	5865.607829
6901.733911	5815.832676
6903.134378	5834.843159
6904.534845	5852.862166
6905.935312	5848.365507
6907.335779	5841.428070
6908.736245	5866.115144
6910.136712	5843.281437
6911.537179	5862.371042
6912.937646	5862.140343
6914.338113	5862.318861
6915.738580	5850.205172
6917.139046	5860.947220
6918.539513	5883.462836
6919.939980	5874.438125
6921.340447	5881.966862
6922.740914	5867.574671
6924.141380	5844.505989
6925.541847	5864.320365
6926.942314	5870.347292
6928.342781	5893.433186
6929.743248	5892.266108
6931.143715	5882.928959
6932.544181	5865.051203
6933.944648	5881.182128
6935.345115	5876.699330
6936.745582	5878.356257
6938.146049	5864.903439
6939.546516	5891.776162
6940.946982	5885.795323
6942.347449	5899.748237
6943.747916	5867.211956
6945.148383	5873.699890
6946.548850	5946.781514
6947.949316	5880.384167
6949.349783	5899.410959
6950.750250	5903.190784
6952.150717	5883.433989
6953.551184	5925.638405
6954.951651	5900.312872
6956.352117	5905.127738
6957.752584	5931.765328
6959.153051	5894.243989
6960.553518	5900.430379
6961.953985	5904.214061
6963.354451	5890.475034
6964.754918	5916.886670
6966.155385	5921.545758
6967.555852	5918.917300
6968.956319	5927.739346
6970.356786	5932.638090
6971.757252	5926.502370
6973.157719	5919.586086
6974.558186	5943.317320
6975.958653	5916.382141
6977.359120	5949.616326
6978.759587	5927.633487
6980.160053	5943.874928
6981.560520	5961.694582
6982.960987	5902.236297
6984.361454	5935.255042
6985.761921	5934.029321
6987.162387	5967.668044
6988.562854	5937.942902
6989.963321	5986.988009
6991.363788	5925.161333
6992.764255	5955.369500
6994.164722	5946.399513
6995.565188	5961.857806
6996.965655	5947.912200
6998.366122	5951.752485
6999.766589	5933.325068
7001.167056	5964.460751
7002.567523	5942.561323
7003.967989	5947.598698
7005.368456	5970.782159
7006.768923	5969.916270
7008.169390	5989.422510
7009.569857	5956.021359
7010.970323	5984.958350
7012.370790	5985.828503
7013.771257	5978.826472
7015.171724	5973.702001
7016.572191	5986.988343
7017.972658	6003.876672
7019.373124	5987.476915
7020.773591	6008.283518
7022.174058	5993.982548
7023.574525	6026.502187
7024.974992	6003.598164
7026.375458	6003.154382
7027.775925	5984.242332
7029.176392	5989.640816
7030.576859	6019.437183
7031.977326	6013.002501
7033.377793	6023.356794
7034.778259	6011.618687
7036.178726	6022.409988
7037.579193	6018.117264
7038.979660	6034.734980
7040.380127	6029.897357
7041.780594	6064.031230
7043.181060	6028.661079
7044.581527	6058.714632
7045.981994	6029.095139
7047.382461	6040.942733
7048.782928	6038.340213
7050.183394	6072.929403
7051.583861	6063.692326
7052.984328	6062.329241
7054.384795	6066.954505
7055.785262	6050.370432
7057.185729	6090.910538
7058.586195	6093.973642
7059.986662	6075.913437
7061.387129	6079.957808
7062.787596	6092.861024
7064.188063	6083.894791
7065.588530	6086.955491
7066.988996	6086.035927
7068.389463	6091.745219
7069.789930	6093.334410
7071.190397	6115.001402
7072.590864	6102.744442
7073.991330	6104.896132
7075.391797	6105.609826
7076.792264	6096.248573
7078.192731	6145.911358
7079.593198	6133.944381
7080.993665	6143.159420
7082.394131	6126.100041
7083.794598	6159.833704
7085.195065	6144.122006
7086.595532	6167.743339
7087.995999	6149.805069
7089.396465	6153.430126
7090.796932	6150.318256
7092.197399	6163.580915
7093.597866	6170.018486
7094.998333	6193.303885
7096.398800	6198.323975
7097.799266	6180.937993
7099.199733	6202.281085
7100.600200	6147.684216
7102.000667	6185.895394
7103.401134	6201.244126
7104.801601	6215.402406
7106.202067	6213.088253
7107.602534	6210.596715
7109.003001	6209.261030
7110.403468	6208.983801
7111.803935	6254.357902
7113.204401	6247.562124
7114.604868	6255.298291
7116.005335	6240.846903
7117.405802	6237.730881
7118.806269	6259.183008
7120.206736	6255.663171
7121.607202	6259.337109
7123.007669	6266.167762
7124.408136	6262.385901
7125.808603	6264.206416
7127.209070	6279.097664
7128.609537	6267.467800
7130.010003	6302.798282
7131.410470	6312.038941
7132.810937	6293.615199
7134.211404	6283.506630
7135.611871	6322.644502
7137.012337	6326.203709
7138.412804	6328.885681
7139.813271	6314.577714
7141.213738	6311.910070
7142.614205	6372.498372
7144.014672	6349.795219
7145.415138	6366.892036
7146.815605	6364.618670
7148.216072	6378.306861
7149.616539	6359.424408
7151.017006	6378.479022
7152.417472	6371.472950
7153.817939	6382.208149
7155.218406	6394.666358
7156.618873	6385.064661
7158.019340	6412.182060
7159.419807	6415.450643
7160.820273	6415.412345
7162.220740	6438.383132
7163.621207	6447.455216
7165.021674	6442.400698
7166.422141	6492.546129
7167.822608	6480.633125
7169.223074	6494.261451
7170.623541	6480.171507
7172.024008	6506.246908
7173.424475	6512.158159
7174.824942	6493.315449
7176.225408	6506.366294
7177.625875	6568.422997
7179.026342	6526.711417
7180.426809	6548.458395
7181.827276	6546.304001
7183.227743	6570.454269
7184.628209	6551.618542
7186.028676	6560.106660
7187.429143	6600.945588
7188.829610	6595.749603
7190.230077	6564.546145
7191.630544	6611.099218
7193.031010	6617.155738
7194.431477	6639.783235
7195.831944	6643.278691
7197.232411	6653.038211
7198.632878	6658.763322
7200.033344	6671.459194
7201.433811	6659.569327
7202.834278	6674.498408
7204.234745	6683.908165
7205.635212	6686.655028
7207.035679	6728.785490
7208.436145	6743.425338
7209.836612	6746.883011
7211.237079	6739.178664
7212.637546	6750.777797
7214.038013	6762.988629
7215.438479	6797.147633
7216.838946	6799.337287
7218.239413	6828.622436
7219.639880	6799.214121
7221.040347	6821.711214
7222.440814	6817.643343
7223.841280	6826.873360
7225.241747	6857.503009
7226.642214	6866.618505
7228.042681	6875.907072
7229.443148	6872.647493
7230.843615	6910.813431
7232.244081	6915.922581
7233.644548	6946.348219
7235.045015	6953.453888
7236.445482	6938.218439
7237.845949	6976.655821
7239.246415	6974.691487
7240.646882	7019.744839
7242.047349	7009.525289
7243.447816	7015.757792
7244.848283	7030.683626
7246.248750	7027.869710
7247.649216	7083.231869
7249.049683	7109.767816
7250.450150	7066.023780
7251.850617	7102.317926
7253.251084	7118.693705
7254.651551	7125.821395
7256.052017	7167.515081
7257.452484	7182.610623
7258.852951	7174.996149
7260.253418	7224.652728
7261.653885	7209.111757
7263.054351	7220.157339
7264.454818	7243.277078
7265.855285	7243.311390
7267.255752	7291.847699
7268.656219	7294.975160
7270.056686	7296.201452
7271.457152	7314.666922
7272.857619	7319.880027
7274.258086	7353.602699
7275.658553	7346.549062
7277.059020	7382.408338
7278.459486	7391.126783
7279.859953	7424.029902
7281.260420	7447.914987
7282.660887	7460.944066
7284.061354	7464.273898
7285.461821	7472.547143
7286.862287	7495.879693
7288.262754	7517.409688
7289.663221	7542.361140
7291.063688	7543.998570
7292.464155	7555.583353
7293.864622	7590.354511
7295.265088	7625.881455
7296.665555	7651.412693
7298.066022	7653.132484
7299.466489	7644.361439
7300.866956	7698.395251
7302.267422	7682.698067
7303.667889	7702.002081
7305.068356	7738.208808
7306.468823	7729.375078
7307.869290	7780.436614
7309.269757	7785.979194
7310.670223	7811.177878
7312.070690	7811.276393
7313.471157	7854.784429
7314.871624	7868.262248
7316.272091	7873.603613
7317.672558	7911.725048
7319.073024	7876.131134
7320.473491	7939.949955
7321.873958	7951.365081
7323.274425	7959.491569
7324.674892	7992.480975
7326.075358	8015.686129
7327.475825	8015.452894
7328.876292	8042.976302
7330.276759	8062.344963
7331.677226	8086.983233
7333.077693	8117.532771
7334.478159	8110.121871
7335.878626	8154.684335
7337.279093	8133.106803
7338.679560	8174.801951
7340.080027	8161.987249
7341.480493	8206.210225
7342.880960	8233.170727
7344.281427	8269.725871
7345.681894	8256.996986
7347.082361	8261.727805
7348.482828	8304.856061
7349.883294	8306.381809
7351.283761	8323.334548
7352.684228	8351.488393
7354.084695	8369.766011
7355.485162	8342.791794
7356.885629	8384.692626
7358.286095	8398.555109
7359.686562	8397.364553
7361.087029	8403.371459
7362.487496	8440.753369
7363.887963	8448.519976
7365.288429	8458.008799
7366.688896	8479.895203
7368.089363	8489.429827
7369.489830	8507.351592
7370.890297	8542.775171
7372.290764	8530.340539
7373.691230	8570.291267
7375.091697	8571.655267
7376.492164	8578.021445
7377.892631	8562.691145
7379.293098	8578.916818
7380.693565	8578.802555
7382.094031	8607.689200
7383.494498	8608.862834
7384.894965	8624.469712
7386.295432	8629.908556
7387.695899	8634.959320
7389.096365	8633.697288
7390.496832	8630.598036
7391.897299	8644.237014
7393.297766	8666.803447
7394.698233	8658.305978
7396.098700	8664.087967
7397.499166	8681.740211
7398.899633	8679.278908
7400.300100	8652.590269
7401.700567	8675.756096
7403.101034	8665.643903
7404.501501	8679.151566
7405.901967	8686.568650
7407.302434	8688.605155
7408.702901	8705.669418
7410.103368	8672.449254
7411.503835	8674.287608
7412.904301	8685.575567
7414.304768	8689.153661
7415.705235	8656.519247
7417.105702	8679.069260
7418.506169	8675.043326
7419.906636	8658.617214
7421.307102	8651.990712
7422.707569	8662.059785
7424.108036	8651.873903
7425.508503	8645.412349
7426.908970	8621.905619
7428.309436	8600.080404
7429.709903	8617.095892
7431.110370	8606.596158
7432.510837	8609.264772
7433.911304	8582.235768
7435.311771	8594.123931
7436.712237	8581.245095
7438.112704	8554.102598
7439.513171	8569.098510
7440.913638	8539.121919
7442.314105	8522.794562
7443.714572	8525.623361
7445.115038	8509.910887
7446.515505	8484.489266
7447.915972	8494.972837
7449.316439	8472.821345
7450.716906	8448.565759
7452.117372	8420.312356
7453.517839	8439.413864
7454.918306	8420.621921
7456.318773	8406.779825
7457.719240	8411.237897
7459.119707	8338.577053
7460.520173	8380.089783
7461.920640	8366.399030
7463.321107	8315.916533
7464.721574	8330.308893
7466.122041	8287.186099
7467.522508	8267.820340
7468.922974	8265.855095
7470.323441	8278.544446
7471.723908	8240.153642
7473.124375	8218.930297
7474.524842	8214.786037
7475.925308	8175.355538
7477.325775	8190.230878
7478.726242	8174.294695
7480.126709	8140.041732
7481.527176	8104.557445
7482.927643	8115.157807
7484.328109	8086.120686
7485.728576	8073.912801
7487.129043	8063.806675
7488.529510	8035.755638
7489.929977	7998.080233
7491.330443	8016.347951
7492.730910	7980.529944
7494.131377	7963.530844
7495.531844	7950.209279
7496.932311	7927.966589
7498.332778	7916.817359
7499.733244	7890.873582
7501.133711	7867.573485
7502.534178	7844.328094
7503.934645	7827.277995
7505.335112	7813.021355
7506.735579	7814.615654
7508.136045	7777.190127
7509.536512	7763.090933
7510.936979	7745.803512
7512.337446	7737.943090
7513.737913	7722.343002
7515.138379	7724.959889
7516.538846	7657.247826
7517.939313	7657.594533
7519.339780	7652.552156
7520.740247	7601.699497
7522.140714	7636.195693
7523.541180	7591.516084
7524.941647	7564.615689
7526.342114	7574.443555
7527.742581	7510.359987
7529.143048	7530.055364
7530.543515	7495.637123
7531.943981	7494.022194
7533.344448	7483.693472
7534.744915	7473.909816
7536.145382	7452.235302
7537.545849	7461.510817
7538.946315	7415.401875
7540.346782	7393.709676
7541.747249	7401.707248
7543.147716	7366.924576
7544.548183	7358.878950
7545.948650	7278.362223
7547.349116	7329.150568
7548.749583	7306.276828
7550.150050	7286.037882
7551.550517	7267.996571
7552.950984	7276.787336
7554.351450	7218.131804
7555.751917	7281.629969
7557.152384	7237.459284
7558.552851	7211.569075
7559.953318	7220.522049
7561.353785	7182.250675
7562.754251	7150.940834
7564.154718	7166.126251
7565.555185	7112.654313
7566.955652	7132.790771
7568.356119	7128.476188
7569.756586	7105.363844
7571.157052	7062.525543
7572.557519	7074.443976
7573.957986	7056.713485
7575.358453	7034.737894
7576.758920	6998.620918
7578.159386	7003.065504
7579.559853	7001.001768
7580.960320	7013.177763
7582.360787	7025.489844
7583.761254	6985.058242
7585.161721	6948.511629
7586.562187	6942.263689
7587.962654	6953.169785
7589.363121	6934.614897
7590.763588	6919.855503
7592.164055	6906.258786
7593.564522	6909.483662
7594.964988	6913.950822
7596.365455	6869.582783
7597.765922	6860.956499
7599.166389	6855.385319
7600.566856	6830.238271
7601.967322	6793.739369
7603.367789	6823.598646
7604.768256	6794.857800
7606.168723	6815.383394
7607.569190	6788.246834
7608.969657	6797.950202
7610.370123	6752.705361
7611.770590	6772.717126
7613.171057	6721.555055
7614.571524	6750.473620
7615.971991	6723.327026
7617.372457	6731.521354
7618.772924	6702.758533
7620.173391	6709.132868
7621.573858	6697.295469
7622.974325	6686.456854
7624.374792	6678.395903
7625.775258	6688.100167
7627.175725	6645.702889
7628.576192	6666.492221
7629.976659	6631.536977
7631.377126	6646.448863
7632.777593	6655.023559
7634.178059	6599.622446
7635.578526	6571.011799
7636.978993	6597.647817
7638.379460	6576.739976
7639.779927	6571.224373
7641.180393	6566.270906
7642.580860	6555.372456
7643.981327	6577.094055
7645.381794	6564.839032
7646.782261	6557.752437
7648.182728	6567.533420
7649.583194	6513.852229
7650.983661	6480.600568
7652.384128	6541.119269
7653.784595	6507.311310
7655.185062	6495.580769
7656.585529	6462.306921
7657.985995	6462.081845
7659.386462	6485.813680
7660.786929	6466.436286
7662.187396	6429.508310
7663.587863	6440.980976
7664.988329	6464.180082
7666.388796	6461.045453
7667.789263	6438.566602
7669.189730	6471.418909
7670.590197	6437.929641
7671.990664	6443.366929
7673.391130	6429.960185
7674.791597	6416.240107
7676.192064	6377.556469
7677.592531	6367.573571
7678.992998	6374.453995
7680.393464	6383.504988
7681.793931	6373.760668
7683.194398	6373.538597
7684.594865	6361.849721
7685.995332	6363.605190
7687.395799	6365.597843
7688.796265	6345.305814
7690.196732	6335.324223
7691.597199	6294.836857
7692.997666	6341.805989
7694.398133	6311.742745
7695.798600	6304.378691
7697.199066	6325.756538
7698.599533	6321.295019
7700.000000	6312.546202
